# Absolute-Acceleration Response Spectrum at 5% Damping: Coyote Lake 1979 - G02-050
# Frequency (Hz),Response (cm/s/s)
0.05,0.39299968886023906
0.052648662383742266,0.42413586264893927
0.055434092750492305,0.4581721279697582
0.0583629825875889,0.4952950404297145
0.06144231277717188,0.5357529162985819
0.06467936229278154,0.5798639533815813
0.06808171676777161,0.6279761260977865
0.07165727688707364,0.6804693226496921
0.07541426654982533,0.7377573894312424
0.07936124074632275,0.8002899824049108
0.08350709308872031,0.8685540943551238
0.08786106293093385,0.9432928923184491
0.09243274200935837,1.0251285870971514
0.09723208053235888,1.1144577091686116
0.102269392643099,1.2119254799771464
0.10755536117721874,1.3182103697979723
0.11310104163423935,1.434018821115714
0.11891786527945258,1.5600778111802065
0.12501764129153237,1.6971250679451677
0.13141255787028794,1.8464987763200238
0.1381151822189523,2.0086356864227266
0.1451384593162664,2.184020405316181
0.15249570939546792,2.376242895998895
0.16020062405021324,2.6754628610030404
0.1682672608915281,3.0146333243809598
0.17671003668516463,3.3978798821679645
0.1855437189052925,3.8290934630807025
0.19478341564830443,4.311657843981379
0.20444456385968365,4.848138345121284
0.2145429158373564,5.439969316772934
0.22509452398669602,6.0872070645616745
0.23611572381529594,6.7884501253935285
0.24762311516968832,7.541064492465128
0.25963354173122905,8.342616339186934
0.2721640688042414,9.192618820193852
0.28523195944602003,10.982917893803952
0.29885464900523123,13.37618315165765
0.3130497181523592,15.737325409948966
0.3278348645028836,17.797378950847627
0.3432278729505459,19.326603394862236
0.3592465848440862,21.309069923923627
0.3759088661559136,23.501024566728585
0.39323257480502033,27.711368368580928
0.41123552730879004,29.613553953822233
0.42993546494892027,30.0560017156698
0.44935001964525073,31.918324662782798
0.46949667973766435,36.51285551640833
0.4903927558802506,44.60991164760994
0.5120553472534787,52.428241553158365
0.5345013082991639,58.659117801885955
0.5577472161795091,65.24771506161547
0.5818093391555171,69.54507969063114
0.606703606071684,71.62623749844681
0.6324455771232536,76.32797582151008
0.6590504160696257,74.7986195395469
0.6865328640429955,80.48344059143876
0.7149072150852241,80.33393493889047
0.7441872935285949,88.1525144491294
0.7743864333177973,86.71506384110847
0.8055174593515271,91.00450892234667
0.8375926709028066,88.91658176923706
0.8706238271578376,91.00823768130392
0.9046221348941828,99.97940921170182
0.939598238300627,132.7332511484912
0.9755622109234309,162.28459046213277
1.0125235497070844,166.60159726804784
1.05049117108229,144.45458021390593
1.0894734090398916,121.52268611439501
1.129478015116943,110.64608253249408
1.1705121602101525,114.05752309094093
1.212582438122592,123.33168378189791
1.2556948707418336,135.84282251966658
1.2998549147415488,148.01303309500491
1.3450674696940426,155.9941759482525
1.3913368874781114,158.7339465529431
1.43866698286494,167.88146429980927
1.4870610451643738,158.45169830705362
1.5365218508147054,159.4099632367335
1.5870516768009948,142.7291274200663
1.6386523147897394,129.56424099838748
1.6913250858713371,130.18055417990945
1.7450708558060835,135.70579093307884
1.7998900506743127,135.39180495204855
1.8557826728365998,132.1421901643032
1.9127483171155883,134.6351785864149
1.970786187116888,162.07306473481714
2.029895111612508,188.7054573172242
2.0900735609163705,210.111181804934
2.151319663187509,222.20125257002667
2.213631220602545,223.1371699827899
2.2770057253448805,223.74139576447683
2.341440375363707,232.6223481607706
2.4069320898613906,237.06601070640548
2.4734775244729756,245.56697287493634
2.541073086106497,263.26343825210597
2.609714947417414,289.13230096346734
2.679399060894834,316.4933084583124
2.7501211725412227,340.3927635071961
2.821876835131048,359.91323290798175
2.8946614210372217,377.32240411468877
2.9684701346173523,392.63606821524587
3.0432980241546685,437.320369054487
3.1191399933510495,483.5657777808225
3.1959908123719036,515.6722041044875
3.2738451284447034,528.624710778193
3.3526974760147956,526.970759053557
3.4325422864637116,518.4686404659715
3.513373897396597,509.43337019285167
3.595186561506567,516.5981650496395
3.677974455024828,533.0146424832251
3.7617316857662577,510.39138121476503
3.846452300780847,502.05794649596584
3.9321302936219764,517.4916962460044
4.018759611242953,540.2352166942783
4.106334160533582,572.3051508307465
4.194847814508758,609.0374732106583
4.28429441816126,638.2952469424001
4.374667793990954,652.3890337856709
4.465961747222659,653.4134797867293
4.558170070724835,649.9492478641374
4.65128654964118,661.3081459755637
4.745304965747031,711.5302755784401
4.840219101542299,713.1413137006833
4.936022744092433,708.0029369274417
5.03270968862864,739.2668702323663
5.13027374191833,761.4466519104532
5.228708725416456,776.0299775466451
5.328008478208095,782.836115687489
5.42816685975232,779.401669336963
5.52917775243706,767.1660920835785
5.631035063954334,746.6673743130739
5.7337327295048945,721.951533056383
5.837264713840986,693.8834157930654
5.941625013155588,662.1923480471539
6.046807656826187,626.7157237838215
6.152806709020776,594.004500047873
6.25961627017349,578.8251749136673
6.367230478336921,567.4710591760372
6.4756435104179095,564.4315671590161
6.584849583303247,571.1290413456046
6.694842954881476,572.7730707547075
6.805617924966669,571.3458489722783
6.917168836129793,569.7063793647054
7.029490074443002,563.2065270845823
7.142576070141949,552.0980142572181
7.256421298210956,542.5445621106351
7.371020278895634,521.5823777150207
7.486367578147333,499.8921752131471
7.602457808003564,481.07204576614765
7.719285626908339,464.80385255625464
7.836845739976161,454.23481530709216
7.9551328992032095,440.84884996441633
8.074141903629082,425.00971629284317
8.193867599452258,412.20219440607235
8.314304880102323,410.4164403768169
8.435448686271783,416.07324638998534
8.557294005910167,423.3175282003889
8.679835874182979,425.0820205649668
8.80306937339791,428.19769195866775
8.926989632900577,425.1811312603601
9.051591828941948,426.0308581586611
9.176871184519493,440.9493243531817
9.30282296919397,456.06416069547566
9.42944249888365,471.46277825245136
9.556725135637715,479.77997502221683
9.6846662873904,478.3405898121482
9.813261407697434,472.3760165927133
9.942505995456186,466.8446978486116
10.072395594610864,457.9178833846112
10.202925793844054,447.10470875997413
10.334092226255759,436.8847418121485
10.465890569031096,430.18598660090936
10.598316543097672,429.4253110439794
10.731365912773665,434.3546889582583
10.865034485407508,441.22559193805625
10.999318111010078,446.4563719767127
11.1342126818802,450.2228505528728
11.269714132224227,458.0149010590362
11.405818437770442,467.3126330803145
11.542521615378943,475.98833953897525
11.679819722647643,482.6796605993051
11.81770885751499,486.7263707294562
11.956185157859963,488.41287172908443
12.095244801099843,493.06271392747743
12.234884003786286,491.3518739822496
12.375099021200096,482.1148540189507
12.515886146945181,467.7557061268342
12.657241712542035,452.17702810229997
12.799162087021147,429.79936138094
12.941643676516671,405.8831187378003
13.084682923860663,386.2548916577314
13.228276308178199,374.41046702181006
13.372420344483631,369.83924819132216
13.517111583278256,369.00743157037454
13.662346610149614,368.1169711738665
13.808122045372636,364.99323764304796
13.954434543512857,359.2953424289073
14.101280793031862,352.11069281394384
14.24865751589514,345.21658898296306
14.396561467182515,339.94038536100044
14.544989434701275,336.4077551950672
14.693938238602147,333.581173455457
14.843404730998227,329.748330091665
14.993385795586988,323.58669774766537
15.143878347275438,315.5496492709051
15.294879331808545,308.024722938939
15.44638572540099,303.6415003670044
15.598394534372327,303.4285355698295
15.7509027947856,306.57970987304503
15.903907572089507,311.54875645585264
16.0574059607641,317.13100255111397
16.211395083970142,322.87132667336385
16.365872093202068,328.81064206683754
16.520834167944663,334.88137772148605
16.676278515333426,340.5022335308222
16.832202369818656,344.57533667528486
16.988602992833297,345.8164234936139
17.145477672464512,345.8852590745604
17.302823723129027,346.4087816729594
17.460638485252236,343.9155407873435
17.618919324951058,339.5168664691122
17.77766363372056,334.4433069073305
17.936868828124332,329.6012295971129
18.09653234948859,325.16044640731553
18.256651663600014,320.53603457098234
18.417224260407306,314.933848285543
18.578247653726436,307.95146729456013
18.739719380949573,300.5117540986456
18.901637002757667,293.16448729763056
19.063998102836674,291.4962234930087
19.22680028759738,290.9347623003683
19.390041185898827,297.3250986609179
19.553718448775278,301.11219270965273
19.717829749166732,301.96074051182495
19.882372781652922,299.4147290164412
20.047345262190795,293.3375456355899
20.212744927855432,294.76949565064393
20.37856953658436,297.0768479078229
20.544816866925263,297.24982284100355
20.711484717787016,297.5799318026705
20.87857090819403,298.5865351640489
21.04607327704387,297.99206657269303
21.213989682868124,295.9640950924857
21.382318003596446,292.8746822801943
21.551056136323794,289.2568012608538
21.72020199708079,285.6228038788344
21.88975352060716,282.32475459824184
22.059708660128262,279.53863153203406
22.2300653871346,277.3129650323429
22.400821691164364,275.5984330898382
22.571975579588887,274.2482708692434
22.743525077401028,273.0428919454718
22.915468227006436,271.76871600314024
23.08780308801764,270.3042729052178
23.260527737050957,268.64148648620994
23.43364026752616,266.83214314766127
23.60713878946888,264.9148534418338
23.781021429315697,264.04479859927807
23.955286329721897,264.04137456258167
24.129931649371862,263.92384761844284
24.304955562792028,263.6319253374821
24.480356260166413,263.1118635310216
24.65613194715466,262.3374947903308
24.832280844712557,261.32483836168024
25.008801188915026,260.1101333178068
25.185691230781504,258.69638275265174
25.362949236103734,257.0235146956246
25.540573485275882,254.99821417315536
25.718562273126974,252.5549780572221
25.89691390875564,249.70340969535246
26.07562671536707,246.5409574320433
26.254699030112228,243.22373474545043
26.434129203929235,239.90872387272856
26.613915601386896,236.70673198077753
26.79405660053039,233.6715853002105
26.974550592729006,230.81605794378737
27.15539598252599,228.1372077564922
27.3365911874904,225.63947477122827
27.51813463807096,223.34240989123236
27.70002477745193,221.8358393122119
27.882260061410864,221.7151881640262
28.064838958178342,222.83974028513492
28.24775994829956,223.88958273349243
28.43102152449779,224.944624695267
28.61462219153969,226.08564269006357
28.798560466102398,227.38031010490593
28.98283487664243,228.8607280139922
29.167443963266322,230.49827367741807
29.352386277603017,232.19457889877162
29.537660382677927,233.80318936540442
29.72326485278871,235.17594367213698
29.909198273382675,236.2102594591561
30.095459240935835,236.8709348061783
30.282046362833555,237.17723167571012
30.468958257252783,237.17235818680916
30.656193553045856,236.9020235077958
30.843750889625813,236.75814227680934
31.03162891685325,238.54541804570414
31.219826294924648,240.18373312431874
31.408341694262177,241.72760374812705
31.597173795404945,243.2288212022605
31.786321288901675,244.71519653161147
31.975782875204782,246.1781299248576
32.16555726456584,247.57498600052338
32.35564317693241,248.8444704813842
32.546039341846196,249.92745041170986
32.73674449834256,250.78340645422995
32.927757394851305,251.39627720491737
33.11907678909876,251.77000778618734
33.31070144801114,251.91836929042708
33.5026301476191,251.85466549132772
33.69486167296362,251.5856732906595
33.88739481800298,251.11102161381442
34.080228385521025,250.42630730084682
34.27336118703654,249.52728830867346
34.46679204271383,249.22789960886246
34.660519781274395,250.82618398842763
34.85454323990979,252.23075780509743
35.04886126419551,253.42351817104642
35.24347270800605,254.39086279023837
35.438376433431,255.12820389131073
35.633571310692176,255.6443863813516
35.82905621806184,255.96292163492436
36.024830041781925,256.1177832501568
36.220891675984305,256.14516976691993
36.417240022612,256.07581162832133
36.61387399134142,255.93167599251592
36.81079249950559,255.7272204932396
37.00799447201826,255.4723938781476
37.20547884129904,255.17474716951233
37.40324454719941,254.84019787909037
37.60129053692965,254.47329164905287
37.79961576498674,254.07728558809117
37.99821919308301,253.65367408122304
38.197099790075825,253.20112513794038
38.39625653189802,252.71461577837127
38.59568840148923,252.18579590316062
38.79539438872806,251.6048823842452
38.9953734903651,250.96325927728893
39.195624709956675,250.2555136679978
39.396147057799524,249.480185447582
39.59693955086615,248.63932819518124
39.79800121274105,247.73743227323862
39.99933107355761,246.7802960288011
40.20092816993589,245.77418350178158
40.402791544921044,244.7252889352895
40.60492024792252,244.79633868695228
40.807313334654005,245.43205330940208
41.009969867074055,246.02582881373786
41.212888913327454,246.58233665236284
41.416069547687265,247.1060411402649
41.61951085049756,247.60051149169388
41.82321190811684,248.06768902067162
42.0271718128621,248.50730229375387
42.2313896629536,248.9165710198546
42.43586456246023,249.290180822246
42.640595621245545,249.62043417748023
42.84558195491444,249.89755694614252
43.05082268476041,250.1102497649392
43.2563169377135,250.2465812324457
43.46206384628875,250.29520771117313
43.668062548535346,250.24676927096726
43.87431218798629,250.0952424449529
44.08081191360868,249.83903692451597
44.28756087975455,249.48166282200899
44.494558246112305,249.0318188073251
44.70180317765867,248.50275532156667
44.90929484461121,247.91082939844176
45.11703242238142,247.27337076382494
45.325015091528286,246.60627729057063
45.53324203771244,245.92196431869888
45.74171245165079,245.22821855215406
45.9504255290717,244.5281493930917
46.159380470670634,243.82101501753968
46.368576482066345,243.10349582853857
46.57801277375753,242.37106498290123
46.78768856107996,241.6193026917112
46.99760306416414,240.84510453691016
47.20775550789338,240.04767667049967
47.41814512186239,239.22910516270971
47.62877114033628,238.39429077757038
47.83963280221009,237.55020637220795
48.05072935096867,236.7046739079131
48.2620600346471,235.86502314458608
48.47362410579147,235.03699084457662
48.68542082142017,234.2240706516322
48.89744944298552,233.42733409667017
49.10970923633587,232.64561208285753
49.322199471678125,231.87588931700589
49.53491942354065,231.11379438498972
49.747868370736576,230.3541183142331
49.961045596327544,229.5913343225891
50.17445038758779,228.82011251654336
50.38808203596865,228.03582677611945
50.60193983706347,227.2350401783602
50.81602309057282,226.415934106666
51.030331100270175,225.5786226793938
51.24486317396788,224.7252831880409
51.45961862348354,223.8600504637131
51.67459676460674,222.9886704287622
51.889796917066114,222.91038953634956
52.10521840449679,222.8423164024876
52.320860554408156,222.73114328002137
52.53672269815199,222.57927082235759
52.75280417089089,222.39041316881443
52.96910431156709,222.16910928216512
53.185622462871535,221.92018341333642
53.40235797121336,221.64825284888607
53.61931018668964,221.35737945876534
53.83647846305542,221.05091650738308
54.05386215769417,220.7315356892131
54.27146063158843,220.40137019872543
54.48927324929083,220.06219913574049
54.70729937889538,219.71561778924013
54.92553839200905,219.36316481748466
55.143989663723715,219.0063970371184
55.36265257258827,218.64691543409808
55.58152650058112,218.2863561608317
55.800610833082935,217.92636623251295
56.01990495884965,217.56857979806458
56.239408269985795,217.21459621058293
56.45912016191804,216.86594389410575
56.67904003336905,216.52400661699662
56.89916728633158,216.18989815610857
57.119501326042865,215.86429377913484
57.340041560959214,215.54725132847494
57.56078740273092,215.2380698927794
57.781738266177356,214.9352347614547
58.002893569262426,214.63648446142747
58.22425273307013,214.33901317402203
58.44581518178046,214.03979391505527
58.66758034264553,213.73597872390738
58.889547645965905,213.42530772830986
59.111716525067195,213.1064477513853
59.33408641627688,212.77919089483703
59.556656758901354,212.4444756057817
59.779426995203195,212.10423811242958
60.002396570378664,211.76114390602768
60.225564932535434,211.4182708212607
60.44893153267051,211.07881050258513
60.67249582464838,210.7458299303752
60.896257265179415,210.42210397033801
61.120215313798404,210.1100076873227
61.344369432843365,209.81144953522704
61.56871908743453,209.5278305703075
61.79326374545353,209.26002311864312
62.018002877522804,209.0083686186128
62.242935956985185,208.77269637998126
62.4680624598837,208.55236377611106
62.69338186494152,208.34631613474056
62.9188936535422,208.15316310433033
63.14459730970998,207.97126819380446
63.37049232009037,207.7988489002712
63.59657817393089,207.63408490847775
63.82285436306197,207.47523006975956
64.04932038187808,207.32072049202347
64.27597572731898,207.16926803467788
64.50281989885121,207.1975848495143
64.72985239844971,207.22949084936266
64.9570727305796,207.26379153713083
65.18448040217818,207.30127454167103
65.41207492263709,207.3424709875717
65.63985580378457,207.38763069261284
65.867822559868,207.43671484975297
66.09597470753651,207.48939890558526
66.32431176582377,207.54508014330474
66.55283325613094,207.6028883928698
66.78153870220983,207.66170286899984
67.01042763014615,207.7201813442068
67.23949956834296,207.77680808574323
67.46875404750419,207.82996399621382
67.69819060061843,207.8780174133385
67.9278087629428,207.91942883340997
68.15760807198697,207.95285882838192
68.38758806749732,207.97726633464
68.61774829144127,207.99198459521284
68.84808828799177,207.99676449938173
69.07860760351183,207.9917797919157
69.30930578653933,207.9775949009041
69.54018238777185,207.95510249881158
69.77123696005174,207.925442593907
70.00246905835118,207.88991662697805
70.23387823975757,207.84990843128372
70.46546406345885,207.80681978621166
70.69722609072912,207.76202307470473
70.92916388491425,207.71682870259193
71.16127701141771,207.67246153825155
71.39356503768654,207.6300392536218
71.62602753319733,207.59054621833968
71.85866406944243,207.55479930261313
72.09147421991624,207.52340603571696
72.32445756010165,207.49672011445855
72.55761366745658,207.4748029921139
72.79094212140059,207.45740190485617
73.02444250330171,207.4439533843658
73.2581143964633,207.43361713802176
73.49195738611104,207.4253391979669
73.72597105938011,207.4179371134105
73.96015500530235,207.4101953920868
74.19450881479365,207.40095759021477
74.42903208064136,207.38920278183215
74.66372439749189,207.37409810117563
74.89858536183833,207.35502445371543
75.13361457200828,207.3315778461583
75.36881162815169,207.3035527724317
75.60417613222883,207.27091592039523
75.83970768799841,207.23377802125916
76.07540590100577,207.19236944416164
76.31127037857112,207.1470220197376
76.54730072977799,207.0981565417449
76.78349656546165,207.04627326333951
77.01985749819774,206.9919419216476
77.25638314229096,206.93578837734117
77.49307311376381,206.8784764283854
77.7299270303455,206.8206851133981
77.96694451146085,206.7630832440298
78.20412517821944,206.7063036039447
78.44146865340468,206.65091915317626
78.67897456146311,206.5974229058902
78.91664252849365,206.5462122998636
79.15447218223714,206.49757822974445
79.39246315206574,206.45169868294246
79.63061506897259,206.4086370538728
79.86892756556142,206.3683454701083
80.10740027603643,206.33067354220879
80.34603283619202,206.29538267104692
80.58482488340282,206.2621654494383
80.82377605661364,206.23066898561908
81.06288599632963,206.20052040088055
81.3021543446064,206.17135247762073
81.54158074504032,206.14282749520368
81.78116484275888,206.11465762564572
82.02090628441107,206.0866207567904
82.26080471815787,206.05857115053945
82.50085979366288,206.03044483336524
82.74107116208295,206.00225999612178
82.98143847605886,205.9741129276756
83.22196138970618,205.94617013169452
