# Absolute-Acceleration Response Spectrum at 5% Damping: Nisqually 2001 - UNR-058
# Frequency (Hz),Response (cm/s/s)
0.05,0.9704425932425687
0.052648662383742266,1.0965153853131593
0.055434092750492305,1.2412611586308686
0.0583629825875889,1.4051986483564147
0.06144231277717188,1.5880426231240068
0.06467936229278154,1.7886910933877667
0.06808171676777161,2.002286028991696
0.07165727688707364,2.223029033862902
0.07541426654982533,2.4431214094949834
0.07936124074632275,2.653081308239775
0.08350709308872031,2.8424514163928523
0.08786106293093385,3.0008898114469833
0.09243274200935837,3.240893800081098
0.09723208053235888,3.628534952354417
0.102269392643099,4.035200961187049
0.10755536117721874,4.463384437770983
0.11310104163423935,4.920552645700893
0.11891786527945258,5.418971889963896
0.12501764129153237,5.971818025730568
0.13141255787028794,6.592890922180186
0.1381151822189523,7.289741136938261
0.1451384593162664,8.05704167709816
0.15249570939546792,8.912361646736324
0.16020062405021324,10.059942575521259
0.1682672608915281,11.016242316107078
0.17671003668516463,11.606410646580496
0.1855437189052925,11.776419723640013
0.19478341564830443,13.6806189161383
0.20444456385968365,15.341100485531229
0.2145429158373564,16.639741390926247
0.22509452398669602,17.512659912743697
0.23611572381529594,18.0098178647114
0.24762311516968832,18.258628864984164
0.25963354173122905,18.199364092410292
0.2721640688042414,18.601907578419233
0.28523195944602003,20.004962017838544
0.29885464900523123,22.807489820513624
0.3130497181523592,25.388974114341583
0.3278348645028836,27.97542318618044
0.3432278729505459,31.00623545182427
0.3592465848440862,34.87823253979906
0.3759088661559136,39.65889808664174
0.39323257480502033,45.01459852791487
0.41123552730879004,50.105515978788304
0.42993546494892027,53.90835488081936
0.44935001964525073,61.54213874903101
0.46949667973766435,69.14683606477215
0.4903927558802506,78.65886358351
0.5120553472534787,92.76235475128001
0.5345013082991639,116.51147262497426
0.5577472161795091,152.8475287161056
0.5818093391555171,189.40416234673174
0.606703606071684,242.79630547832156
0.6324455771232536,265.30783220014047
0.6590504160696257,275.1583036293126
0.6865328640429955,267.9489082732134
0.7149072150852241,280.141122515096
0.7441872935285949,311.8927275635414
0.7743864333177973,312.01742548402234
0.8055174593515271,373.1942187095303
0.8375926709028066,415.37865694511015
0.8706238271578376,471.24669644756364
0.9046221348941828,554.2390300210316
0.939598238300627,643.546255027469
0.9755622109234309,693.8276719916448
1.0125235497070844,693.0462862189748
1.05049117108229,627.3432360111877
1.0894734090398916,521.4478490151868
1.129478015116943,429.05949836590645
1.1705121602101525,401.64290549148757
1.212582438122592,383.7472752610395
1.2556948707418336,372.5488126687881
1.2998549147415488,398.11663308469423
1.3450674696940426,412.207696038599
1.3913368874781114,388.53265028909965
1.43866698286494,385.1314619941199
1.4870610451643738,405.8808460715003
1.5365218508147054,429.1165355606242
1.5870516768009948,434.96166986510264
1.6386523147897394,461.01916423904333
1.6913250858713371,439.21465707205834
1.7450708558060835,412.2518947020994
1.7998900506743127,426.5865396978831
1.8557826728365998,421.28892065841814
1.9127483171155883,378.69489136260233
1.970786187116888,381.3740042344617
2.029895111612508,382.28492235534134
2.0900735609163705,382.2254567342954
2.151319663187509,381.7224829938692
2.213631220602545,370.619316771611
2.2770057253448805,374.03356775188684
2.341440375363707,371.22439954972145
2.4069320898613906,365.31314507972064
2.4734775244729756,341.80053790522936
2.541073086106497,334.59369994325044
2.609714947417414,337.5757002360472
2.679399060894834,410.1453613126194
2.7501211725412227,459.6235494169908
2.821876835131048,486.6648707175146
2.8946614210372217,495.7499110147865
2.9684701346173523,509.0737841843634
3.0432980241546685,537.9642618656555
3.1191399933510495,564.7618975966334
3.1959908123719036,615.0936694346643
3.2738451284447034,718.3971108959528
3.3526974760147956,796.6466355033697
3.4325422864637116,823.5400831154216
3.513373897396597,794.198523679343
3.595186561506567,774.1297390126554
3.677974455024828,847.8046095678161
3.7617316857662577,1022.0370527353127
3.846452300780847,1201.7019726598958
3.9321302936219764,1318.2422178047827
4.018759611242953,1366.293096092892
4.106334160533582,1341.3676364730889
4.194847814508758,1267.113929463817
4.28429441816126,1191.4618138995975
4.374667793990954,1145.0863219566043
4.465961747222659,1056.9144579660942
4.558170070724835,971.3080481165997
4.65128654964118,902.9380808395617
4.745304965747031,880.7619512989397
4.840219101542299,846.9610590668162
4.936022744092433,806.5763960885306
5.03270968862864,748.9212572866687
5.13027374191833,709.5702801822639
5.228708725416456,689.5142579198772
5.328008478208095,652.014017541173
5.42816685975232,606.722535451975
5.52917775243706,565.2359481554147
5.631035063954334,533.6012251586906
5.7337327295048945,511.74735352132046
5.837264713840986,498.05351971148536
5.941625013155588,492.5100693081731
6.046807656826187,478.60810793677183
6.152806709020776,455.5402168274278
6.25961627017349,442.06514719370585
6.367230478336921,427.52144476344756
6.4756435104179095,411.76130516570004
6.584849583303247,421.78537963716695
6.694842954881476,440.0463167975637
6.805617924966669,449.6080178786578
6.917168836129793,458.9156897011903
7.029490074443002,450.8879241281155
7.142576070141949,430.3119262606415
7.256421298210956,407.0800421038901
7.371020278895634,383.06392703892715
7.486367578147333,367.34910161647997
7.602457808003564,359.5526071783378
7.719285626908339,354.50292017459475
7.836845739976161,348.5267451840316
7.9551328992032095,340.37619457312854
8.074141903629082,334.4224304351446
8.193867599452258,327.56086288793193
8.314304880102323,331.062530987658
8.435448686271783,340.72672152874105
8.557294005910167,353.12746791631474
8.679835874182979,362.8493251356353
8.80306937339791,371.7377251910623
8.926989632900577,375.9641591408387
9.051591828941948,371.790464620567
9.176871184519493,362.59146348578827
9.30282296919397,357.07522718633226
9.42944249888365,352.3994228033255
9.556725135637715,347.92467713366887
9.6846662873904,343.21724289385173
9.813261407697434,337.8542794213958
9.942505995456186,331.83432112972304
10.072395594610864,325.65207976558156
10.202925793844054,320.0662451174851
10.334092226255759,315.7863791148
10.465890569031096,313.03594851755344
10.598316543097672,311.2052094275491
10.731365912773665,309.5331066276388
10.865034485407508,308.62245204676344
10.999318111010078,307.0173418456518
11.1342126818802,304.61008818393765
11.269714132224227,301.5180751195678
11.405818437770442,298.0362765490994
11.542521615378943,294.638643472788
11.679819722647643,291.79575912560745
11.81770885751499,289.6247208410272
11.956185157859963,287.74834041958127
12.095244801099843,285.663249332849
12.234884003786286,283.2065790070872
12.375099021200096,280.58729246141064
12.515886146945181,278.0736587480064
12.657241712542035,275.76132388514304
12.799162087021147,273.60538732273636
12.941643676516671,271.5887508901992
13.084682923860663,270.44376617158764
13.228276308178199,270.4223338366757
13.372420344483631,270.7183576380483
13.517111583278256,271.1160189134995
13.662346610149614,271.518130401002
13.808122045372636,271.57713877457735
13.954434543512857,271.63063435630795
14.101280793031862,272.0154593913795
14.24865751589514,272.89022661438963
14.396561467182515,274.2573370130905
14.544989434701275,276.065353734037
14.693938238602147,278.26022176774995
14.843404730998227,280.77036037845517
14.993385795586988,283.4477949006012
15.143878347275438,286.0181030791766
15.294879331808545,288.12699735977765
15.44638572540099,289.49820606387664
15.598394534372327,290.0638019807901
15.7509027947856,289.9222132507052
15.903907572089507,289.19214946764333
16.0574059607641,288.5478987334985
16.211395083970142,289.0178550830537
16.365872093202068,288.9269573562835
16.520834167944663,288.4387232841684
16.676278515333426,287.7477898605882
16.832202369818656,286.97474563444183
16.988602992833297,286.1643979106574
17.145477672464512,285.36829823137913
17.302823723129027,284.6897157559282
17.460638485252236,284.2363659521299
17.618919324951058,284.04404033930615
17.77766363372056,284.0560114346938
17.936868828124332,284.1729665948211
18.09653234948859,284.31065366799584
18.256651663600014,284.41093181115804
18.417224260407306,284.4284393141096
18.578247653726436,284.3384682630051
18.739719380949573,284.16108703443865
18.901637002757667,283.9613384095807
19.063998102836674,283.8176509199073
19.22680028759738,283.7967010884369
19.390041185898827,283.95720997543145
19.553718448775278,284.35722384897906
19.717829749166732,285.0374851108994
19.882372781652922,285.9924235637965
20.047345262190795,287.15727885957557
20.212744927855432,288.4182903093301
20.37856953658436,289.63455792387293
20.544816866925263,290.6651978730018
20.711484717787016,291.3982984586952
20.87857090819403,291.7692066169492
21.04607327704387,291.7576021873687
21.213989682868124,291.37177287796203
21.382318003596446,290.6376590428121
21.551056136323794,289.59697300992065
21.72020199708079,288.3054234464947
21.88975352060716,286.8265590710771
22.059708660128262,285.22803984536097
22.2300653871346,283.5852560327052
22.400821691164364,281.9866081393761
22.571975579588887,281.36530898574557
22.743525077401028,280.5355399167687
22.915468227006436,279.57733685577205
23.08780308801764,278.57056749164093
23.260527737050957,277.58931408525933
23.43364026752616,276.92581932223857
23.60713878946888,276.9965275922064
23.781021429315697,277.24793271139043
23.955286329721897,277.60787103623227
24.129931649371862,277.9991186966185
24.304955562792028,278.3480892370608
24.480356260166413,278.59088251990096
24.65613194715466,278.679802029668
24.832280844712557,278.58817317652887
25.008801188915026,278.3074317018758
25.185691230781504,278.48979512084264
25.362949236103734,279.1786064052011
25.540573485275882,279.7926155939671
25.718562273126974,280.279893477864
25.89691390875564,280.5903765969985
26.07562671536707,280.68849368920286
26.254699030112228,280.5620189855065
26.434129203929235,280.22477533595804
26.613915601386896,279.71281330200947
26.79405660053039,279.0742866558702
26.974550592729006,278.35650234265256
27.15539598252599,277.596672069977
27.3365911874904,276.8205222917479
27.51813463807096,276.0472027488911
27.70002477745193,275.2959688225217
27.882260061410864,274.59077153851655
28.064838958178342,273.96032383096394
28.24775994829956,273.43320540818115
28.43102152449779,273.0307938346647
28.61462219153969,272.76261849570835
28.798560466102398,272.62625620670303
28.98283487664243,272.60953020653324
29.167443963266322,272.691727324957
29.352386277603017,272.8431812506077
29.537660382677927,273.02465053270663
29.72326485278871,273.18790026451603
29.909198273382675,273.2790207323431
30.095459240935835,273.24637671984755
30.282046362833555,273.05274881756765
30.468958257252783,272.68663218369994
30.656193553045856,272.16623001020713
30.843750889625813,271.5341876938212
31.03162891685325,270.8468915651759
31.219826294924648,270.16343086566684
31.408341694262177,269.5365910478525
31.597173795404945,269.00614780526007
31.786321288901675,268.59503087321394
31.975782875204782,268.30909534384494
32.16555726456584,268.13964004208674
32.35564317693241,268.06655327726185
32.546039341846196,268.06108342878696
32.73674449834256,268.14436743066125
32.927757394851305,268.2034288118818
33.11907678909876,268.23031317066483
33.31070144801114,268.2562629370726
33.5026301476191,268.31013174247335
33.69486167296362,268.4130004438562
33.88739481800298,268.5743490872427
34.080228385521025,268.7904758829719
34.27336118703654,269.04548271965626
34.46679204271383,269.3143045336434
34.660519781274395,269.5666283508756
34.85454323990979,269.7706772862745
35.04886126419551,269.89646858121085
35.24347270800605,269.91866258731704
35.438376433431,269.81916333078607
35.633571310692176,269.5893359802663
35.82905621806184,269.55391010695905
36.024830041781925,270.15628445793516
36.220891675984305,270.7410391104014
36.417240022612,271.2749148602663
36.61387399134142,271.7305091578159
36.81079249950559,272.0891427476232
37.00799447201826,272.34208070774434
37.20547884129904,272.4896213292341
37.40324454719941,272.53840172491
37.60129053692965,272.4980084116663
37.79961576498674,272.3780457611668
37.99821919308301,272.1863175997964
38.197099790075825,271.9282535218991
38.39625653189802,271.60740616770084
38.59568840148923,271.2266429143676
38.79539438872806,270.78952083726
38.9953734903651,270.3013733328331
39.195624709956675,269.7698229219404
39.396147057799524,269.20462633871404
39.59693955086615,268.6169161825252
39.79800121274105,268.01807488557347
39.99933107355761,267.4186374320424
40.20092816993589,266.8276528330883
40.402791544921044,266.25274776458537
40.60492024792252,266.3553337067604
40.807313334654005,266.88534568063125
41.009969867074055,267.41698485688823
41.212888913327454,267.9392543963082
41.416069547687265,268.4395230483259
41.61951085049756,268.90386723044895
41.82321190811684,269.3180813130125
42.0271718128621,269.6692829203152
42.2313896629536,269.94779025773755
42.43586456246023,270.1487941396052
42.640595621245545,270.2733664523618
42.84558195491444,270.3284902745946
43.05082268476041,270.3260207931978
43.2563169377135,270.28077336912133
43.46206384628875,270.20819530958613
43.668062548535346,270.1221723396185
43.87431218798629,270.0334136271578
44.08081191360868,269.948649754534
44.28756087975455,269.87067449766243
44.494558246112305,269.7990983578748
44.70180317765867,269.73155878428844
44.90929484461121,269.66506119346735
45.11703242238142,269.59712642974523
45.325015091528286,269.5265027021
45.53324203771244,269.4533493224347
45.74171245165079,269.3789702276922
45.9504255290717,269.3052986559146
46.159380470670634,269.23435937130216
46.368576482066345,269.16786762640453
46.57801277375753,269.10702073667073
46.78768856107996,269.0524572730341
46.99760306416414,269.0043239914516
47.20775550789338,268.96239188379127
47.41814512186239,268.92617996745014
47.62877114033628,268.8950641724133
47.83963280221009,268.86836261373577
48.05072935096867,268.84539652438264
48.2620600346471,268.8255296446561
48.47362410579147,268.8081900635198
48.68542082142017,268.7928787963341
48.89744944298552,268.7791691959127
49.10970923633587,268.76670068584787
49.322199471678125,268.75516943756185
49.53491942354065,268.7443177409177
49.747868370736576,268.73392311601367
49.961045596327544,268.72378772473576
50.17445038758779,268.7137283389671
50.38808203596865,268.7035669667995
50.60193983706347,268.6931221900798
50.81602309057282,268.6822012976123
51.030331100270175,268.6705933971438
51.24486317396788,268.6580638592221
51.45961862348354,268.6443506908924
51.67459676460674,268.62916374627576
51.889796917066114,268.6121880156338
52.10521840449679,268.59309250972234
52.320860554408156,268.5715463309383
52.53672269815199,268.5472432308145
52.75280417089089,268.51993516497913
52.96910431156709,268.4894739853073
53.185622462871535,268.4558583318903
53.40235797121336,268.419279847982
53.61931018668964,268.38015915873734
53.83647846305542,268.339158572911
54.05386215769417,268.2971573235618
54.27146063158843,268.25517939584586
54.48927324929083,268.21427613682437
54.70729937889538,268.1753853434551
54.92553839200905,268.1392092049393
55.143989663723715,268.10616416252657
55.36265257258827,268.0764459903159
55.58152650058112,268.05022129564827
55.800610833082935,268.0279121769795
56.01990495884965,268.0105011938545
56.239408269985795,267.99976460536266
56.45912016191804,267.99835014871917
56.67904003336905,268.00964899620914
56.89916728633158,268.03746056848496
57.119501326042865,268.0855008843668
57.340041560959214,268.1568467870295
57.56078740273092,268.25342796774993
57.781738266177356,268.3756691556708
58.002893569262426,268.52234771916784
58.22425273307013,268.6906787475647
58.44581518178046,268.87658773393184
58.66758034264553,269.0750958197111
58.889547645965905,269.2807322912811
59.111716525067195,269.48790266973185
59.33408641627688,269.69117000470334
59.556656758901354,269.885440169942
59.779426995203195,270.06606865575566
60.002396570378664,270.22892051879876
60.225564932535434,270.3704154480721
60.44893153267051,270.4875788314628
60.67249582464838,270.5781029127192
60.896257265179415,270.64040714631153
61.120215313798404,270.6736801711681
61.344369432843365,270.67788964915246
61.56871908743453,270.65375751334534
61.79326374545353,270.60271062607984
62.018002877522804,270.52682415199223
62.242935956985185,270.42877345008486
62.4680624598837,270.31180014917317
62.69338186494152,270.17968312171456
62.9188936535422,270.03669150645607
63.14459730970998,269.88749110883896
63.37049232009037,269.7369813981113
63.59657817393089,269.59005750780284
63.82285436306197,269.451314933182
64.04932038187808,269.32473585601895
64.27597572731898,269.21340762880425
64.50281989885121,269.1193221760733
64.72985239844971,269.04329113049863
64.9570727305796,268.9849902187272
65.18448040217818,268.9431236424165
65.41207492263709,268.915679860799
65.63985580378457,268.9002372096193
65.867822559868,268.8942722721441
66.09597470753651,268.8954257931499
66.32431176582377,268.9016896594799
66.55283325613094,268.91149313009294
66.78153870220983,268.9236852740898
67.01042763014615,268.9374303423348
67.23949956834296,268.9520494293814
67.46875404750419,268.96685130609467
67.69819060061843,268.98099531969507
67.9278087629428,268.99341982521173
68.15760807198697,269.0028531765775
68.38758806749732,269.00790479909745
68.61774829144127,269.00721551995105
68.84808828799177,268.99963279624177
69.07860760351183,268.9843704049578
69.30930578653933,268.9611149710688
69.54018238777185,268.9300532042003
69.77123696005174,268.8918116228135
70.00246905835118,268.84732059934424
70.23387823975757,268.79763146945726
70.46546406345885,268.74372464716606
70.69722609072912,268.68634608503055
70.92916388491425,268.62590017082726
71.16127701141771,268.562412943921
71.39356503768654,268.4955647957454
71.62602753319733,268.4247800709135
71.85866406944243,268.34935389219277
72.09147421991624,268.26859414527877
72.32445756010165,268.1819579440579
72.55761366745658,268.08916572991814
72.79094212140059,267.99028110166535
73.02444250330171,267.88574944580876
73.2581143964633,267.7763928622743
73.49195738611104,267.6633627722237
73.72597105938011,267.54805533248816
73.96015500530235,267.4319986273497
74.19450881479365,267.3167242908546
74.42903208064136,267.2036389062918
74.66372439749189,267.0939112746053
74.89858536183833,266.9883899040779
75.13361457200828,266.8875610397189
75.36881162815169,266.7915520166547
75.60417613222883,266.70017869320884
75.83970768799841,266.613030062655
76.07540590100577,266.52957847491956
76.31127037857112,266.44930067469676
76.54730072977799,266.3717934653829
76.78349656546165,266.29686852205697
77.01985749819774,266.2246137453657
77.25638314229096,266.1554132556535
77.49307311376381,266.08992399300473
77.7299270303455,266.0290129946866
77.96694451146085,265.97366480364497
78.20412517821944,265.924872306994
78.44146865340468,265.8835260894274
78.67897456146311,265.85031694502635
78.91664252849365,265.82566369482987
79.15447218223714,265.8096743539153
79.39246315206574,265.8021436210778
79.63061506897259,265.8025843897172
79.86892756556142,265.81028631590675
80.10740027603643,265.8243911920043
80.34603283619202,265.84397351555594
80.58482488340282,265.868115387481
80.82377605661364,265.8959674142683
81.06288599632963,265.9267908894767
81.3021543446064,265.9599802356915
81.54158074504032,265.99506762774257
81.78116484275888,266.0317133701919
82.02090628441107,266.0696859243602
82.26080471815787,266.10883485926155
82.50085979366288,266.1490590585413
82.74107116208295,266.19027185224496
82.98143847605886,266.2323647143112
83.22196138970618,266.2751717734459
83.46263955860614,266.31843829722953
83.70347263979657,266.3617970169535
