EC-Lab ASCII FILE
Nb header lines : 59

Linear Sweep Voltammetry

Run on channel : 14 (SN 38920)
User :
CE vs. WE compliance from -10 V to 10 V
Electrode connection : standard
Potential control : Ewe
Ewe ctrl range : min = -10.00 V, max = 10.00 V
Safety Limits :
	Do not start on E overload
Acquisition started on : 02/21/2023 16:51:00.000
Loaded Setting File : NONE
Saved on :
	File : example.mpr
	Directory : C:\Users\?????????\Desktop\Data\User\20230221\Sample\
	Host : 127.0.0.1
Device : VMP3 (SN 1105)
Address : 127.0.0.1
EC-Lab for windows v11.34 (software)
Internet server v11.34 (firmware)
Command interpretor v11.34 (firmware)
Electrode material :
Initial state :
Electrolyte :
Comments :
Electrode surface area : 0.450 cm2
Characteristic mass : 0.001 g
Equivalent Weight : 0.000 g/eq.
Density : 0.000 g/cm3
Volume (V) : 0.000 m3
Cycle Definition : Charge/Discharge alternance
tR (h:m:s)          0:03:0.0000
dER/dt (mV/h)       0.0
dER (mV)            0
dtR (s)             15.0000
dE/dt               1.000
dE/dt unit          mV/s
Ei (V)              0.123
vs.                 Ref
EL (V)              1.123
vs.                 Ref
record              <I>
dI                  0.000
unit dI             uA
tI (s)              0.0000
step percent        25
N                   10
E range min (V)     -10.000
E range max (V)     10.000
I Range             Auto
I Range min         Unset
I Range max         Unset
I Range init        Unset
Bandwidth           5

mode	ox/red	error	control changes	time/s	control/V	Ewe/V	<I>/mA	(Q-Qo)/C	I Range	P/W
3	0	0	0	1.652480580709089E+003	0.0000000E+000	-3.7408751E-001	0.000000000000000E+000	3.5670186E-011	14	0.0000000E+000
3	0	0	0	1.667480580330157E+003	0.0000000E+000	-1.9743057E-001	0.000000000000000E+000	3.5670186E-011	14	0.0000000E+000
3	0	0	0	1.682480579951225E+003	0.0000000E+000	-1.7362815E-001	0.000000000000000E+000	3.5670186E-011	14	0.0000000E+000
3	0	0	0	1.697480579572293E+003	0.0000000E+000	-1.6347349E-001	0.000000000000000E+000	3.5670186E-011	14	0.0000000E+000
3	0	0	0	1.712480579193361E+003	0.0000000E+000	-1.5753719E-001	0.000000000000000E+000	3.5670186E-011	14	0.0000000E+000
3	0	0	0	1.727480578814429E+003	0.0000000E+000	-1.5310885E-001	0.000000000000000E+000	3.5670186E-011	14	0.0000000E+000
3	0	0	0	1.742480578435498E+003	0.0000000E+000	-1.4992119E-001	0.000000000000000E+000	3.5670186E-011	14	0.0000000E+000
3	0	0	0	1.757480578056566E+003	0.0000000E+000	-1.4700077E-001	0.000000000000000E+000	3.5670186E-011	14	0.0000000E+000
3	0	0	0	1.772480577677634E+003	0.0000000E+000	-1.4486295E-001	0.000000000000000E+000	3.5670186E-011	14	0.0000000E+000
3	0	0	0	1.787480577298702E+003	0.0000000E+000	-1.4289691E-001	0.000000000000000E+000	3.5670186E-011	14	0.0000000E+000
3	0	0	0	1.802480576919770E+003	0.0000000E+000	-1.4129354E-001	0.000000000000000E+000	3.5670186E-011	14	0.0000000E+000
3	0	0	0	1.817480576540838E+003	0.0000000E+000	-1.3967109E-001	0.000000000000000E+000	3.5670186E-011	14	0.0000000E+000
3	0	0	1	1.832480376161911E+003	1.2282543E-001	-1.4108357E-001	0.000000000000000E+000	3.5670186E-011	14	0.0000000E+000
2	1	0	1	1.832788176154136E+003	1.2297915E-001	1.2125822E-001	1.274110966766004E-003	1.2377924E-006	14	1.5449643E-007
2	1	0	1	1.834482376111337E+003	1.2467328E-001	1.2287217E-001	5.829082876777896E-004	2.3487023E-006	14	7.1623205E-008
2	1	0	1	1.837562676033522E+003	1.2775357E-001	1.2590179E-001	4.363080162161498E-004	3.9278812E-006	14	5.4931959E-008
2	1	0	1	1.840642975955707E+003	1.3083386E-001	1.2896961E-001	3.943660208961391E-004	5.2364721E-006	14	5.0861232E-008
2	1	0	1	1.843723275877892E+003	1.3391419E-001	1.3210104E-001	3.724881561409186E-004	6.4486480E-006	14	4.9206076E-008
2	1	0	1	1.846803575800077E+003	1.3699445E-001	1.3514867E-001	3.600562744263689E-004	7.6072083E-006	14	4.8661128E-008
2	1	0	1	1.849883875722262E+003	1.4007480E-001	1.3821760E-001	3.505395460820905E-004	8.7320313E-006	14	4.8450733E-008
2	1	0	1	1.852964275644445E+003	1.4315514E-001	1.4130773E-001	3.431573811402593E-004	9.8323026E-006	14	4.8490790E-008
2	1	0	1	1.856044575566630E+003	1.4623548E-001	1.4434271E-001	3.362869882158901E-004	1.0910964E-005	14	4.8540574E-008
2	1	0	1	1.859124875488815E+003	1.4931576E-001	1.4744867E-001	3.290124672128717E-004	1.1968797E-005	14	4.8512451E-008
2	1	0	1	1.862205175411000E+003	1.5239610E-001	1.5052183E-001	3.220462276714870E-004	1.3006003E-005	14	4.8474988E-008
2	1	0	1	1.865285475333185E+003	1.5547638E-001	1.5364690E-001	3.159226373924966E-004	1.4023193E-005	14	4.8540535E-008
2	1	0	1	1.868365775255370E+003	1.5855664E-001	1.5667862E-001	3.103689838130394E-004	1.5021507E-005	14	4.8628184E-008
2	1	0	1	1.871446075177555E+003	1.6163698E-001	1.5979101E-001	3.058306741259131E-004	1.6002530E-005	14	4.8868991E-008
2	1	0	1	1.874526375099740E+003	1.6471724E-001	1.6286623E-001	3.010986592309069E-004	1.6968172E-005	14	4.9038803E-008
2	1	0	1	1.877606675021925E+003	1.6779757E-001	1.6590434E-001	2.968113757284936E-004	1.7920340E-005	14	4.9242296E-008
2	1	0	1	1.880687074944108E+003	1.7087795E-001	1.6900936E-001	2.931499975833271E-004	1.8861754E-005	14	4.9545093E-008
2	1	0	1	1.883767274866295E+003	1.7395818E-001	1.7213118E-001	2.902352770346333E-004	1.9793548E-005	14	4.9958540E-008
2	1	0	1	1.886847674788478E+003	1.7703854E-001	1.7519377E-001	2.888428792685032E-004	2.0717736E-005	14	5.0603475E-008
2	1	0	1	1.889927874710665E+003	1.8011878E-001	1.7823926E-001	2.863201037923120E-004	2.1635455E-005	14	5.1033481E-008
2	1	0	1	1.893008274632848E+003	1.8319917E-001	1.8132409E-001	2.851482335543259E-004	2.2548287E-005	14	5.1704244E-008
2	1	0	1	1.896088574555033E+003	1.8627945E-001	1.8442266E-001	2.836392453562705E-004	2.3457551E-005	14	5.2309503E-008
2	1	0	1	1.899168874477218E+003	1.8935975E-001	1.8749368E-001	2.833252868234227E-004	2.4364101E-005	14	5.3121703E-008
2	1	0	1	1.902249174399403E+003	1.9244005E-001	1.9056571E-001	2.834530701423896E-004	2.5268926E-005	14	5.4016436E-008
2	1	0	1	1.905329474321588E+003	1.9552037E-001	1.9367492E-001	2.831392035636068E-004	2.6172922E-005	14	5.4836963E-008
2	1	0	1	1.908409774243773E+003	1.9860065E-001	1.9671831E-001	2.827138513925989E-004	2.7076574E-005	14	5.5614990E-008
2	1	0	1	1.911490074165959E+003	2.0168094E-001	1.9981265E-001	2.932514971599621E-004	2.7998114E-005	14	5.8595358E-008
2	1	0	1	1.914570374088144E+003	2.0476121E-001	2.0287725E-001	3.002042254915032E-004	2.8972372E-005	14	6.0904611E-008
2	1	0	1	1.917650674010329E+003	2.0784156E-001	2.0603205E-001	2.842980825403180E-004	2.9900326E-005	14	5.8574518E-008
2	1	0	1	1.920731073932511E+003	2.1092193E-001	2.0909356E-001	2.846021952452022E-004	3.0809420E-005	14	5.9508483E-008
2	1	0	1	1.923811273854699E+003	2.1400216E-001	2.1212947E-001	2.848077914533636E-004	3.1719661E-005	14	6.0416127E-008
2	1	0	1	1.926891673776881E+003	2.1708255E-001	2.1520801E-001	2.857462002148897E-004	3.2631455E-005	14	6.1494873E-008
2	1	0	1	1.929971973699066E+003	2.2016285E-001	2.1827795E-001	2.870580458909132E-004	3.3545635E-005	14	6.2658444E-008
2	1	0	1	1.933052273621252E+003	2.2324316E-001	2.2137547E-001	2.872974524449397E-004	3.4462428E-005	14	6.3600609E-008
2	1	0	1	1.936132573543437E+003	2.2632341E-001	2.2444324E-001	2.875973275042396E-004	3.5381941E-005	14	6.4549276E-008
2	1	0	1	1.939212873465622E+003	2.2940375E-001	2.2752383E-001	2.893130398499378E-004	3.6305031E-005	14	6.5825610E-008
2	1	0	1	1.942293173387807E+003	2.3248401E-001	2.3061280E-001	2.903800646727016E-004	3.7230984E-005	14	6.6965363E-008
2	1	0	1	1.945373473309992E+003	2.3556435E-001	2.3372625E-001	2.911514213758890E-004	3.8160870E-005	14	6.8049729E-008
2	1	0	1	1.948453773232177E+003	2.3864463E-001	2.3682797E-001	2.932757217389403E-004	3.9094459E-005	14	6.9455893E-008
2	1	0	1	1.951534073154362E+003	2.4172495E-001	2.3984915E-001	2.942115892319197E-004	4.0031478E-005	14	7.0566401E-008
2	1	0	1	1.954614473076545E+003	2.4480534E-001	2.4292977E-001	2.957029183009265E-004	4.0972900E-005	14	7.1835039E-008
2	1	0	1	1.957694672998732E+003	2.4788554E-001	2.4606219E-001	2.976876955445443E-004	4.1918407E-005	14	7.3249687E-008
2	1	0	1	1.960775072920915E+003	2.5096592E-001	2.4910250E-001	2.986072571930327E-004	4.2868280E-005	14	7.4383813E-008
2	1	0	1	1.963855372843100E+003	2.5404623E-001	2.5222865E-001	2.996392661606746E-004	4.3822649E-005	14	7.5577610E-008
2	1	0	1	1.966935672765285E+003	2.5712654E-001	2.5524130E-001	3.013319019266542E-004	4.4781315E-005	14	7.6912350E-008
2	1	0	1	1.970015972687470E+003	2.6020682E-001	2.5830597E-001	3.024247121166660E-004	4.5744870E-005	14	7.8118106E-008
2	1	0	1	1.973096272609655E+003	2.6328716E-001	2.6140666E-001	3.050207425269820E-004	4.6713289E-005	14	7.9734455E-008
2	1	0	1	1.976176572531840E+003	2.6636738E-001	2.6448822E-001	3.065792812633800E-004	4.7686615E-005	14	8.1086611E-008
2	1	0	1	1.979256872454025E+003	2.6944771E-001	2.6758364E-001	3.072510645662691E-004	4.8665184E-005	14	8.2215358E-008
2	1	0	1	1.982337172376210E+003	2.7252802E-001	2.7068534E-001	3.090120426651433E-004	4.9648548E-005	14	8.3645034E-008
2	1	0	1	1.985417472298395E+003	2.7560833E-001	2.7374578E-001	3.120230376147332E-004	5.0637205E-005	14	8.5414989E-008
2	1	0	1	1.988497872220578E+003	2.7868870E-001	2.7682319E-001	3.135687785904354E-004	5.1631538E-005	14	8.6803112E-008
2	1	0	1	1.991578072142765E+003	2.8176895E-001	2.7994505E-001	3.149960854780206E-004	5.2630985E-005	14	8.8181594E-008
2	1	0	1	1.994658472064948E+003	2.8484935E-001	2.8300440E-001	3.169124733938544E-004	5.3636028E-005	14	8.9687624E-008
2	1	0	1	1.997738771987133E+003	2.8792959E-001	2.8610191E-001	3.189705803084862E-004	5.4646796E-005	14	9.1258094E-008
2	1	0	1	2.000819071909318E+003	2.9100996E-001	2.8915384E-001	3.199536024347941E-004	5.5662989E-005	14	9.2515812E-008
2	1	0	1	2.003899371831503E+003	2.9409024E-001	2.9229063E-001	3.220981444768196E-004	5.6685225E-005	14	9.4146266E-008
2	1	0	1	2.006979671753688E+003	2.9717052E-001	2.9531598E-001	3.249557387471533E-004	5.7713940E-005	14	9.5964623E-008
2	1	0	1	2.010059971675873E+003	3.0025080E-001	2.9835832E-001	3.263391574599461E-004	5.8750455E-005	14	9.7366005E-008
2	1	0	1	2.013140271598058E+003	3.0333114E-001	3.0144739E-001	3.286562616839441E-004	5.9794249E-005	14	9.9072572E-008
2	1	0	1	2.016220571520244E+003	3.0641139E-001	3.0456606E-001	3.316435697710823E-004	6.0844668E-005	14	1.0100737E-007
2	1	0	1	2.019300871442429E+003	3.0949175E-001	3.0764455E-001	3.341711708299214E-004	6.1901490E-005	14	1.0280594E-007
2	1	0	1	2.022381271364611E+003	3.1257209E-001	3.1073150E-001	3.359762567261325E-004	6.2964325E-005	14	1.0439840E-007
2	1	0	1	2.025461571286796E+003	3.1565243E-001	3.1380144E-001	3.373100000857894E-004	6.4032967E-005	14	1.0584836E-007
2	1	0	1	2.028541871208981E+003	3.1873271E-001	3.1693920E-001	3.391308934103730E-004	6.5107619E-005	14	1.0748388E-007
2	1	0	1	2.031622171131166E+003	3.2181299E-001	3.1996247E-001	3.408709628265969E-004	6.6187276E-005	14	1.0906592E-007
2	1	0	1	2.034702471053351E+003	3.2489330E-001	3.2309601E-001	3.427156993893038E-004	6.7272784E-005	14	1.1073008E-007
2	1	0	1	2.037782770975537E+003	3.2797357E-001	3.2615006E-001	3.452892398989709E-004	6.8364709E-005	14	1.1261611E-007
2	1	0	1	2.040863070897722E+003	3.3105388E-001	3.2921472E-001	3.477754270188385E-004	6.9463320E-005	14	1.1449279E-007
2	1	0	1	2.043943470819904E+003	3.3413428E-001	3.3225188E-001	3.488411091822391E-004	7.0568691E-005	14	1.1590311E-007
2	1	0	1	2.047023670742092E+003	3.3721447E-001	3.3539167E-001	3.517313390175580E-004	7.1680835E-005	14	1.1796776E-007
2	1	0	1	2.050104070664282E+003	3.4029490E-001	3.3846807E-001	3.543556749449339E-004	7.2800081E-005	14	1.1993808E-007
2	1	0	1	2.053184370586459E+003	3.4337518E-001	3.4152743E-001	3.559897426954903E-004	7.3926611E-005	14	1.2158026E-007
2	1	0	1	2.056264670508652E+003	3.4645548E-001	3.4462705E-001	3.581770991938071E-004	7.5060096E-005	14	1.2343752E-007
2	1	0	1	2.059344970430830E+003	3.4953579E-001	3.4768108E-001	3.611694761132597E-004	7.6200733E-005	14	1.2557179E-007
2	1	0	1	2.062425270353015E+003	3.5261607E-001	3.5078073E-001	3.633249470646499E-004	7.7349287E-005	14	1.2744739E-007
2	1	0	1	2.065505570275200E+003	3.5569638E-001	3.5383153E-001	3.654104452794366E-004	7.8505363E-005	14	1.2929374E-007
2	1	0	1	2.068585870197385E+003	3.5877669E-001	3.5695133E-001	3.688436541669591E-004	7.9669015E-005	14	1.3165923E-007
2	1	0	1	2.071666170119570E+003	3.6185697E-001	3.5998625E-001	3.779252483007258E-004	8.0854930E-005	14	1.3604789E-007
2	1	0	1	2.074746470041755E+003	3.6493728E-001	3.6313361E-001	3.740075138277685E-004	8.2049963E-005	14	1.3581470E-007
2	1	0	1	2.077826869963938E+003	3.6801764E-001	3.6620152E-001	3.768181016043847E-004	8.3238192E-005	14	1.3799136E-007
2	1	0	1	2.080907069886132E+003	3.7109789E-001	3.6925441E-001	3.785102902633085E-004	8.4433392E-005	14	1.3976660E-007
2	1	0	1	2.083987469808308E+003	3.7417823E-001	3.7231481E-001	3.807877688420610E-004	8.5635846E-005	14	1.4177293E-007
2	1	0	1	2.087067769730500E+003	3.7725857E-001	3.7539965E-001	3.834130068924510E-004	8.6846194E-005	14	1.4393311E-007
2	1	0	1	2.090148069652685E+003	3.8033888E-001	3.7852046E-001	3.856447353882096E-004	8.8064691E-005	14	1.4597443E-007
2	1	0	1	2.093228369574863E+003	3.8341919E-001	3.8155755E-001	3.888329864222915E-004	8.9291556E-005	14	1.4836216E-007
2	1	0	1	2.096308669497055E+003	3.8649946E-001	3.8467094E-001	3.916497413391411E-004	9.0525937E-005	14	1.5065628E-007
2	1	0	1	2.099388969419233E+003	3.8957977E-001	3.8774619E-001	3.945583757390845E-004	9.1768641E-005	14	1.5298851E-007
2	1	0	1	2.102469269341425E+003	3.9266011E-001	3.9078432E-001	3.972343776014048E-004	9.3020484E-005	14	1.5523297E-007
2	1	0	1	2.105549569263603E+003	3.9574033E-001	3.9392209E-001	4.003807533965221E-004	9.4280920E-005	14	1.5771883E-007
2	1	0	1	2.108629869185788E+003	3.9882067E-001	3.9699736E-001	4.024832581816457E-004	9.5549520E-005	14	1.5978479E-007
2	1	0	1	2.111710169107973E+003	4.0190092E-001	4.0006623E-001	4.058140137050067E-004	9.6826981E-005	14	1.6235248E-007
2	1	0	1	2.114790469030158E+003	4.0498132E-001	4.0319455E-001	4.089354887618817E-004	9.8113058E-005	14	1.6488056E-007
2	1	0	1	2.117870868952348E+003	4.0806159E-001	4.0625286E-001	4.115866360676489E-004	9.9408593E-005	14	1.6720824E-007
2	1	0	1	2.120951068874529E+003	4.1114184E-001	4.0934181E-001	4.143135620507553E-004	1.0071295E-004	14	1.6959586E-007
2	1	0	1	2.124031468796711E+003	4.1422224E-001	4.1239905E-001	4.178907027008799E-004	1.0202635E-004	14	1.7233774E-007
2	1	0	1	2.127111768718896E+003	4.1730255E-001	4.1548491E-001	4.208770985797142E-004	1.0334923E-004	14	1.7486808E-007
2	1	0	1	2.130192068641081E+003	4.2038283E-001	4.1855699E-001	4.237043510416042E-004	1.0468160E-004	14	1.7734442E-007
2	1	0	1	2.133272368563266E+003	4.2346317E-001	4.2163220E-001	4.268001190279452E-004	1.0602357E-004	14	1.7995268E-007
2	1	0	1	2.136352668485451E+003	4.2654347E-001	4.2472652E-001	4.298556735418679E-004	1.0737522E-004	14	1.8257110E-007
2	1	0	1	2.139432968407651E+003	4.2962369E-001	4.2779112E-001	4.334705189673552E-004	1.0873668E-004	14	1.8543484E-007
2	1	0	1	2.142513268329829E+003	4.3270406E-001	4.3086749E-001	4.359209300747880E-004	1.1010838E-004	14	1.8782416E-007
2	1	0	1	2.145593568252007E+003	4.3578428E-001	4.3394265E-001	4.397713240721322E-004	1.1149065E-004	14	1.9083554E-007
2	1	0	1	2.148673868174199E+003	4.3886465E-001	4.3705192E-001	4.431556844668961E-004	1.1288314E-004	14	1.9368204E-007
2	1	0	1	2.151754268096382E+003	4.4194505E-001	4.4011766E-001	4.461343085325341E-004	1.1428678E-004	14	1.9635159E-007
2	1	0	1	2.154834468018562E+003	4.4502527E-001	4.4321832E-001	4.500029821598566E-004	1.1570175E-004	14	1.9944956E-007
2	1	0	1	2.157914867940752E+003	4.4810563E-001	4.4628087E-001	4.538605944613252E-004	1.1712837E-004	14	2.0254930E-007
2	1	0	1	2.160995167862930E+003	4.5118591E-001	4.4932321E-001	4.572521137282597E-004	1.1856628E-004	14	2.0545399E-007
2	1	0	1	2.164075467785122E+003	4.5426622E-001	4.5244932E-001	4.615822683028676E-004	1.2001552E-004	14	2.0884258E-007
2	1	0	1	2.167155767707300E+003	4.5734656E-001	4.5547584E-001	4.652987831928242E-004	1.2147661E-004	14	2.1193236E-007
2	1	0	1	2.170236067629485E+003	4.6042687E-001	4.5854577E-001	4.695737601185593E-004	1.2295000E-004	14	2.1532107E-007
2	1	0	1	2.173316367551670E+003	4.6350712E-001	4.6170896E-001	4.740702024589377E-004	1.2443603E-004	14	2.1888246E-007
2	1	0	1	2.176396667473855E+003	4.6658742E-001	4.6471956E-001	4.782838607328421E-004	1.2593476E-004	14	2.2226787E-007
2	1	0	1	2.179476967396040E+003	4.6966773E-001	4.6780008E-001	4.814745091799204E-004	1.2744637E-004	14	2.2523382E-007
2	1	0	1	2.182557267318225E+003	4.7274801E-001	4.7091562E-001	4.868439334241230E-004	1.2897124E-004	14	2.2926241E-007
2	1	0	1	2.185637567240410E+003	4.7582835E-001	4.7399506E-001	4.906571269069522E-004	1.3050903E-004	14	2.3256905E-007
2	1	0	1	2.188717867162602E+003	4.7890860E-001	4.7709471E-001	4.944706925515945E-004	1.3205918E-004	14	2.3590935E-007
2	1	0	1	2.191798267084778E+003	4.8198903E-001	4.8017433E-001	4.995404252015438E-004	1.3362286E-004	14	2.3986649E-007
2	1	0	1	2.194878467006973E+003	4.8506925E-001	4.8321342E-001	5.038807338243441E-004	1.3520003E-004	14	2.4348194E-007
2	1	0	1	2.197958866929148E+003	4.8814964E-001	4.8631307E-001	5.076602525140687E-004	1.3679126E-004	14	2.4688183E-007
2	1	0	1	2.201039166851333E+003	4.9122992E-001	4.8932680E-001	5.120336917903258E-004	1.3839691E-004	14	2.5055181E-007
2	1	0	1	2.204119466773525E+003	4.9431023E-001	4.9245298E-001	5.181130750859528E-004	1.4001720E-004	14	2.5514632E-007
2	1	0	1	2.207199766695703E+003	4.9739051E-001	4.9552292E-001	5.224834923205804E-004	1.4165252E-004	14	2.5890253E-007
2	1	0	1	2.210280066617896E+003	5.0047088E-001	4.9861512E-001	5.269981964568567E-004	1.4330287E-004	14	2.6276928E-007
2	1	0	1	2.213360366540073E+003	5.0355113E-001	5.0167447E-001	5.321859382499206E-004	1.4496836E-004	14	2.6698410E-007
2	1	0	1	2.216440666462258E+003	5.0663149E-001	5.0474018E-001	5.370816643403623E-004	1.4664856E-004	14	2.7108669E-007
2	1	0	1	2.219520966384443E+003	5.0971168E-001	5.0785887E-001	5.420483712691017E-004	1.4834371E-004	14	2.7528407E-007
2	1	0	1	2.222601266306629E+003	5.1279211E-001	5.1096904E-001	5.466729727430673E-004	1.5005427E-004	14	2.7933297E-007
2	1	0	1	2.225681566228814E+003	5.1587230E-001	5.1400191E-001	5.515118155568037E-004	1.5178042E-004	14	2.8347813E-007
2	1	0	1	2.228761866150999E+003	5.1895267E-001	5.1707190E-001	5.564692394366792E-004	1.5352217E-004	14	2.8773462E-007
2	1	0	1	2.231842166073191E+003	5.2203286E-001	5.2016300E-001	5.629508468559699E-004	1.5528040E-004	14	2.9282620E-007
2	1	0	1	2.234922565995366E+003	5.2511328E-001	5.2324677E-001	5.677272534769689E-004	1.5705539E-004	14	2.9706146E-007
2	1	0	1	2.238002865917551E+003	5.2819359E-001	5.2638781E-001	5.735540773698009E-004	1.5884716E-004	14	3.0191188E-007
2	1	0	1	2.241083165839736E+003	5.3127384E-001	5.2939403E-001	5.790733962016143E-004	1.6065611E-004	14	3.0655801E-007
2	1	0	1	2.244163465761922E+003	5.3435427E-001	5.3247887E-001	5.850483363530477E-004	1.6248292E-004	14	3.1152587E-007
2	1	0	1	2.247243765684121E+003	5.3743446E-001	5.3557211E-001	5.911649399644014E-004	1.6432849E-004	14	3.1661145E-007
2	1	0	1	2.250324065606299E+003	5.4051483E-001	5.3871101E-001	5.977455155353664E-004	1.6619368E-004	14	3.2201208E-007
2	1	0	1	2.253404365528477E+003	5.4359502E-001	5.4173529E-001	6.032102448229825E-004	1.6807797E-004	14	3.2678028E-007
2	1	0	1	2.256484665450669E+003	5.4667544E-001	5.4482436E-001	6.092351227944652E-004	1.6998028E-004	14	3.3192615E-007
2	1	0	1	2.259565065372844E+003	5.4975575E-001	5.4789215E-001	6.148604401039412E-004	1.7190111E-004	14	3.3687721E-007
2	1	0	1	2.262645265295032E+003	5.5283606E-001	5.5100769E-001	6.219874108701340E-004	1.7384092E-004	14	3.4271986E-007
2	1	0	1	2.265725665217222E+003	5.5591643E-001	5.5406922E-001	6.279689074304168E-004	1.7580007E-004	14	3.4793825E-007
2	1	0	1	2.268805965139400E+003	5.5899662E-001	5.5720383E-001	6.337703198868814E-004	1.7777793E-004	14	3.5313926E-007
2	1	0	1	2.271886265061592E+003	5.6207699E-001	5.6027693E-001	6.395500261113891E-004	1.7977353E-004	14	3.5832511E-007
2	1	0	1	2.274966564983770E+003	5.6515729E-001	5.6339461E-001	6.446880300430168E-004	1.8178669E-004	14	3.6321376E-007
2	1	0	1	2.278046864905955E+003	5.6823760E-001	5.6640095E-001	6.500342279701900E-004	1.8381716E-004	14	3.6818000E-007
2	1	0	1	2.281127164828140E+003	5.7131785E-001	5.6948775E-001	6.557561679838122E-004	1.8586368E-004	14	3.7344512E-007
2	1	0	1	2.284207464750325E+003	5.7439816E-001	5.7252073E-001	6.609354166651499E-004	1.8792714E-004	14	3.7839922E-007
2	1	0	1	2.287287764672510E+003	5.7747853E-001	5.7563615E-001	6.671789640679618E-004	1.9000894E-004	14	3.8405233E-007
2	1	0	1	2.290368064594695E+003	5.8055878E-001	5.7871568E-001	6.737671843290594E-004	1.9211008E-004	14	3.8991965E-007
2	1	0	1	2.293448364516880E+003	5.8363909E-001	5.8175594E-001	6.806394197883632E-004	1.9423189E-004	14	3.9596603E-007
2	1	0	1	2.296528664439073E+003	5.8671939E-001	5.8488947E-001	6.873272260809870E-004	1.9637478E-004	14	4.0201047E-007
2	1	0	1	2.299609064361248E+003	5.8979982E-001	5.8792549E-001	6.945284399244994E-004	1.9854028E-004	14	4.0833098E-007
2	1	0	1	2.302689264283443E+003	5.9288001E-001	5.9102726E-001	7.024430510470178E-004	2.0072891E-004	14	4.1516299E-007
2	1	0	1	2.305769664205618E+003	5.9596038E-001	5.9410685E-001	7.103505966195491E-004	2.0294129E-004	14	4.2202416E-007
2	1	0	1	2.308849964127803E+003	5.9904069E-001	5.9718412E-001	7.187435165839275E-004	2.0517812E-004	14	4.2922221E-007
2	1	0	1	2.311930264049995E+003	6.0212094E-001	6.0030711E-001	7.265608415158624E-004	2.0744052E-004	14	4.3615964E-007
2	1	0	1	2.315010563972173E+003	6.0520124E-001	6.0336012E-001	7.360159222665700E-004	2.0972962E-004	14	4.4408264E-007
2	1	0	1	2.318090863894366E+003	6.0828155E-001	6.0643965E-001	7.445515735189229E-004	2.1204604E-004	14	4.5152561E-007
2	1	0	1	2.321171163816543E+003	6.1136186E-001	6.0949570E-001	7.534995854674570E-004	2.1439003E-004	14	4.5925475E-007
2	1	0	1	2.324251463738728E+003	6.1444217E-001	6.1263138E-001	7.631081301703582E-004	2.1676366E-004	14	4.6750398E-007
2	1	0	1	2.327331763660914E+003	6.1752248E-001	6.1572248E-001	7.734699962586508E-004	2.1916789E-004	14	4.7624286E-007
2	1	0	1	2.330412063583099E+003	6.2060285E-001	6.1878830E-001	7.843566707068369E-004	2.2160436E-004	14	4.8535071E-007
2	1	0	1	2.333492463505288E+003	6.2368315E-001	6.2185079E-001	7.950422925967725E-004	2.2407429E-004	14	4.9439768E-007
2	1	0	1	2.336572663427469E+003	6.2676340E-001	6.2488675E-001	8.066452762896317E-004	2.2657821E-004	14	5.0406197E-007
2	1	0	1	2.339653063349651E+003	6.2984377E-001	6.2802041E-001	8.182166155599260E-004	2.2911756E-004	14	5.1385672E-007
2	1	0	1	2.342733363271836E+003	6.3292402E-001	6.3106060E-001	8.301894248338298E-004	2.3169372E-004	14	5.2389981E-007
2	1	0	1	2.345813663194022E+003	6.3600439E-001	6.3414860E-001	8.425081919196976E-004	2.3430849E-004	14	5.3427539E-007
2	1	0	1	2.348894063116211E+003	6.3908476E-001	6.3721961E-001	8.556369875435746E-004	2.3696308E-004	14	5.4522866E-007
2	1	0	1	2.351974263038392E+003	6.4216501E-001	6.4027888E-001	8.693493240895678E-004	2.3965845E-004	14	5.5662599E-007
2	1	0	1	2.355054662960574E+003	6.4524537E-001	6.4339876E-001	8.841396441901586E-004	2.4239719E-004	14	5.6885438E-007
2	1	0	1	2.358134962882759E+003	6.4832568E-001	6.4648873E-001	8.989612867128828E-004	2.4518068E-004	14	5.8116836E-007
2	1	0	1	2.361215262804944E+003	6.5140593E-001	6.4952701E-001	9.147241595507602E-004	2.4801129E-004	14	5.9413804E-007
2	1	0	1	2.364295562727129E+003	6.5448624E-001	6.5259892E-001	9.310958228189760E-004	2.5089143E-004	14	6.0763210E-007
2	1	0	1	2.367375862649315E+003	6.5756649E-001	6.5571779E-001	9.477878956176699E-004	2.5382303E-004	14	6.2148138E-007
2	1	0	1	2.370456162571514E+003	6.6064680E-001	6.5878224E-001	9.659935922957646E-004	2.5680882E-004	14	6.3637941E-007
2	1	0	1	2.373536462493692E+003	6.6372710E-001	6.6186816E-001	9.840195943480712E-004	2.5985111E-004	14	6.5129126E-007
2	1	0	1	2.376616762415870E+003	6.6680741E-001	6.6491157E-001	1.003146307430052E-003	2.6295095E-004	14	6.6700358E-007
2	1	0	1	2.379697062338062E+003	6.6988778E-001	6.6798687E-001	1.023045402805896E-003	2.6611201E-004	14	6.8338090E-007
2	1	0	1	2.382777462260245E+003	6.7296815E-001	6.7107278E-001	1.044816243230436E-003	2.6933814E-004	14	7.0114777E-007
2	1	0	1	2.385857662182425E+003	6.7604840E-001	6.7421156E-001	1.068497664761788E-003	2.7263162E-004	14	7.2039347E-007
2	1	0	1	2.388938062104615E+003	6.7912877E-001	6.7725194E-001	1.090764849442063E-003	2.7599538E-004	14	7.3872263E-007
2	1	0	1	2.392018262026795E+003	6.8220896E-001	6.8031222E-001	1.113701721539332E-003	2.7943109E-004	14	7.5766491E-007
2	1	0	1	2.395098661948985E+003	6.8528932E-001	6.8344808E-001	1.139992936037157E-003	2.8294339E-004	14	7.7912597E-007
2	1	0	1	2.398178961871163E+003	6.8836963E-001	6.8646705E-001	1.166814457641973E-003	2.8653711E-004	14	8.0097971E-007
2	1	0	1	2.401259261793348E+003	6.9145000E-001	6.8959004E-001	1.194370330995394E-003	2.9021499E-004	14	8.2362590E-007
2	1	0	1	2.404339561715533E+003	6.9453019E-001	6.9266415E-001	1.224016869887131E-003	2.9398073E-004	14	8.4783261E-007
2	1	0	1	2.407419861637718E+003	6.9761056E-001	6.9573301E-001	1.254651568524551E-003	2.9783908E-004	14	8.7290249E-007
2	1	0	1	2.410500161559903E+003	7.0069081E-001	6.9882202E-001	1.285993883875826E-003	3.0179275E-004	14	8.9868087E-007
2	1	0	1	2.413580461482088E+003	7.0377123E-001	7.0194179E-001	1.319256230015945E-003	3.0584607E-004	14	9.2604108E-007
2	1	0	1	2.416660761404273E+003	7.0685148E-001	7.0497465E-001	1.352875057351436E-003	3.1000288E-004	14	9.5374264E-007
2	1	0	1	2.419741061326466E+003	7.0993173E-001	7.0809448E-001	1.389906123422730E-003	3.1426907E-004	14	9.8418479E-007
2	1	0	1	2.422821461248641E+003	7.1301216E-001	7.1114004E-001	1.429127661739027E-003	3.1865176E-004	14	1.0163099E-006
2	1	0	1	2.425901661170836E+003	7.1609235E-001	7.1422577E-001	1.469292851909918E-003	3.2315566E-004	14	1.0494068E-006
2	1	0	1	2.428982061093011E+003	7.1917278E-001	7.1736580E-001	1.510935007016475E-003	3.2778789E-004	14	1.0838932E-006
2	1	0	1	2.432062361015196E+003	7.2225296E-001	7.2037315E-001	1.555033371540207E-003	3.3255396E-004	14	1.1202043E-006
2	1	0	1	2.435142660937388E+003	7.2533327E-001	7.2345155E-001	1.601627990906407E-003	3.3745950E-004	14	1.1587002E-006
2	1	0	1	2.438222960859566E+003	7.2841352E-001	7.2656494E-001	1.649898559159452E-003	3.4251050E-004	14	1.1987585E-006
2	1	0	1	2.441303260781759E+003	7.3149389E-001	7.2964448E-001	1.700779777585685E-003	3.4771400E-004	14	1.2409646E-006
2	1	0	1	2.444383660703941E+003	7.3457426E-001	7.3272508E-001	1.754119073776126E-003	3.5307900E-004	14	1.2852870E-006
2	1	0	1	2.447463860626121E+003	7.3765451E-001	7.3578328E-001	1.809451187532472E-003	3.5861201E-004	14	1.3313639E-006
2	1	0	1	2.450544260548311E+003	7.4073493E-001	7.3889261E-001	1.866897775934000E-003	3.6431904E-004	14	1.3794370E-006
2	1	0	1	2.453624560470489E+003	7.4381512E-001	7.4197191E-001	1.929573006897597E-003	3.7021085E-004	14	1.4316889E-006
2	1	0	1	2.456704860392681E+003	7.4689555E-001	7.4498892E-001	1.992969367220834E-003	3.7629815E-004	14	1.4847401E-006
2	1	0	1	2.459785160314859E+003	7.4997580E-001	7.4810338E-001	2.061344762279226E-003	3.8258816E-004	14	1.5420990E-006
2	1	0	1	2.462865460237044E+003	7.5305605E-001	7.5120509E-001	2.133387329955608E-003	3.8909414E-004	14	1.6026114E-006
2	1	0	1	2.465945760159229E+003	7.5613636E-001	7.5431001E-001	2.208132112631021E-003	3.9582676E-004	14	1.6656162E-006
2	1	0	1	2.469026060081414E+003	7.5921667E-001	7.5732172E-001	2.287806719389817E-003	4.0279771E-004	14	1.7326057E-006
2	1	0	1	2.472106360003600E+003	7.6229692E-001	7.6046789E-001	2.371262952939716E-003	4.1002064E-004	14	1.8032694E-006
2	1	0	1	2.475186659925785E+003	7.6537722E-001	7.6353580E-001	2.457733201380950E-003	4.1750481E-004	14	1.8765672E-006
2	1	0	1	2.478266959847984E+003	7.6845759E-001	7.6656222E-001	2.549164630465381E-003	4.2526211E-004	14	1.9540932E-006
2	1	0	1	2.481347259770162E+003	7.7153790E-001	7.6964706E-001	2.645910212598180E-003	4.3331107E-004	14	2.0364171E-006
2	1	0	1	2.484427659692337E+003	7.7461833E-001	7.7277648E-001	2.749926465547739E-003	4.4167024E-004	14	2.1250785E-006
2	1	0	1	2.487507859614532E+003	7.7769852E-001	7.7580386E-001	2.857661245880050E-003	4.5035535E-004	14	2.2169847E-006
2	1	0	1	2.490588259536707E+003	7.8077888E-001	7.7889824E-001	2.972305184715481E-003	4.5938545E-004	14	2.3151233E-006
2	1	0	1	2.493668559458907E+003	7.8385919E-001	7.8200853E-001	3.091053312977661E-003	4.6877511E-004	14	2.4172300E-006
2	1	0	1	2.496748859381085E+003	7.8693950E-001	7.8510821E-001	3.218429307741050E-003	4.7854477E-004	14	2.5268153E-006
2	1	0	1	2.499829159303263E+003	7.9001975E-001	7.8816223E-001	3.352918655640068E-003	4.8871868E-004	14	2.6426439E-006
2	1	0	1	2.502909459225455E+003	7.9310000E-001	7.9124695E-001	3.496705112199216E-003	4.9932086E-004	14	2.7667572E-006
2	1	0	1	2.505989759147633E+003	7.9618037E-001	7.9436028E-001	3.646183377933133E-003	5.1037682E-004	14	2.8963832E-006
2	1	0	1	2.509070059069818E+003	7.9926068E-001	7.9743129E-001	3.804973462124793E-003	5.2191003E-004	14	3.0342048E-006
2	1	0	1	2.512150358992003E+003	8.0234098E-001	8.0052137E-001	3.972705948558863E-003	5.3394563E-004	14	3.1802360E-006
2	1	0	1	2.515230658914188E+003	8.0542129E-001	8.0356705E-001	4.149907772353030E-003	5.4651272E-004	14	3.3347292E-006
2	1	0	1	2.518311058836378E+003	8.0850166E-001	8.0664974E-001	4.333108566773110E-003	5.5963726E-004	14	3.4953009E-006
2	1	0	1	2.521391258758558E+003	8.1158197E-001	8.0966771E-001	4.525056135430501E-003	5.7333929E-004	14	3.6637919E-006
2	1	0	1	2.524471658680741E+003	8.1466216E-001	8.1280112E-001	4.726903552306799E-003	5.8764941E-004	14	3.8420326E-006
2	1	0	1	2.527551958602926E+003	8.1774259E-001	8.1584156E-001	4.936455651616628E-003	6.0259434E-004	14	4.0273658E-006
2	1	0	1	2.530632258525111E+003	8.2082283E-001	8.1895381E-001	5.157180170838670E-003	6.1820401E-004	14	4.2234924E-006
2	1	0	1	2.533712558447296E+003	8.2390308E-001	8.2199836E-001	5.387725630566859E-003	6.3451007E-004	14	4.4287017E-006
2	1	0	1	2.536792858369481E+003	8.2698345E-001	8.2505769E-001	5.632202744322398E-003	6.5154908E-004	14	4.6468922E-006
2	1	0	1	2.539873158291666E+003	8.3006364E-001	8.2819426E-001	5.876975406278406E-003	6.6934264E-004	14	4.8672773E-006
2	1	0	1	2.542953458213859E+003	8.3314413E-001	8.3129293E-001	6.122818544996439E-003	6.8789173E-004	14	5.0898557E-006
2	1	0	1	2.546033758136036E+003	8.3622432E-001	8.3436078E-001	6.379972501780934E-003	7.0721697E-004	14	5.3231988E-006
2	1	0	1	2.549114058058229E+003	8.3930475E-001	8.3742648E-001	6.643489784463968E-003	7.2734512E-004	14	5.5634341E-006
2	1	0	1	2.552194357980406E+003	8.4238493E-001	8.4053349E-001	6.911803582792420E-003	7.4829324E-004	14	5.8096025E-006
2	1	0	1	2.555274657902592E+003	8.4546524E-001	8.4364480E-001	7.189026339066026E-003	7.7008322E-004	14	6.0649845E-006
2	1	0	1	2.558355057824781E+003	8.4854561E-001	8.4666282E-001	7.476380800475829E-003	7.9274317E-004	14	6.3299735E-006
2	1	0	1	2.561435257746962E+003	8.5162592E-001	8.4972316E-001	7.774955849853743E-003	8.1630633E-004	14	6.6065600E-006
2	1	0	1	2.564515657669152E+003	8.5470629E-001	8.5283023E-001	8.082890128002992E-003	8.4080821E-004	14	6.8933332E-006
2	1	0	1	2.567595957591329E+003	8.5778648E-001	8.5593730E-001	8.400006338359370E-003	8.6627359E-004	14	7.1898789E-006
2	1	0	1	2.570676257513514E+003	8.6086696E-001	8.5899669E-001	8.733594721290025E-003	8.9276576E-004	14	7.5021289E-006
2	1	0	1	2.573756557435700E+003	8.6394715E-001	8.6209518E-001	9.090077161667404E-003	9.2032499E-004	13	7.8365119E-006
2	1	0	1	2.576836857357885E+003	8.6702746E-001	8.6520344E-001	9.431226189127583E-003	9.4893266E-004	13	8.1599292E-006
2	1	0	1	2.579917157280070E+003	8.7010771E-001	8.6830616E-001	9.774792272722821E-003	9.7859942E-004	13	8.4875128E-006
2	1	0	1	2.582997457202255E+003	8.7318808E-001	8.7139636E-001	1.012670542177245E-002	1.0093364E-003	13	8.8243742E-006
2	1	0	1	2.586077757124454E+003	8.7626821E-001	8.7440467E-001	1.048968536487122E-002	1.0411743E-003	13	9.1722295E-006
2	1	0	1	2.589158057046632E+003	8.7934870E-001	8.7749481E-001	1.086360140648478E-002	1.0741489E-003	13	9.5327541E-006
2	1	0	1	2.592238456968807E+003	8.8242906E-001	8.8063478E-001	1.124490894181307E-002	1.1082886E-003	13	9.9026583E-006
2	1	0	1	2.595318656891002E+003	8.8550925E-001	8.8362724E-001	1.163493207659014E-002	1.1436171E-003	13	1.0280943E-005
2	1	0	1	2.598399056813178E+003	8.8858968E-001	8.8672596E-001	1.203156130152439E-002	1.1801606E-003	13	1.0668698E-005
2	1	0	1	2.601479356735377E+003	8.9166987E-001	8.8983190E-001	1.243767073621199E-002	1.2179411E-003	13	1.1067436E-005
2	1	0	1	2.604559656657555E+003	8.9475036E-001	8.9289337E-001	1.284990128941194E-002	1.2569838E-003	13	1.1473592E-005
2	1	0	1	2.607639956579733E+003	8.9783055E-001	8.9600682E-001	1.328415092928428E-002	1.2973340E-003	13	1.1902690E-005
2	1	0	1	2.610720256501925E+003	9.0091085E-001	8.9904386E-001	1.371486306297801E-002	1.3390259E-003	13	1.2330263E-005
2	1	0	1	2.613800556424103E+003	9.0399104E-001	9.0211898E-001	1.415258422134585E-002	1.3820439E-003	13	1.2767315E-005
2	1	0	1	2.616880856346288E+003	9.0707141E-001	9.0525907E-001	1.460839449609751E-002	1.4264396E-003	13	1.3224381E-005
2	1	0	1	2.619961156268473E+003	9.1015166E-001	9.0834588E-001	1.507086380657775E-002	1.4722530E-003	13	1.3689557E-005
2	1	0	1	2.623041456190658E+003	9.1323203E-001	9.1141158E-001	1.554196061014317E-002	1.5195057E-003	13	1.4165123E-005
2	1	0	1	2.626121856112848E+003	9.1631252E-001	9.1446680E-001	1.602149172246869E-002	1.5682244E-003	13	1.4651122E-005
2	1	0	1	2.629202056035028E+003	9.1939270E-001	9.1756523E-001	1.651033265996582E-002	1.6184348E-003	13	1.5149307E-005
2	1	0	1	2.632282455957211E+003	9.2247301E-001	9.2063951E-001	1.701273564555458E-002	1.6701760E-003	13	1.5662597E-005
2	1	0	1	2.635362755879396E+003	9.2555338E-001	9.2365742E-001	1.751758506573148E-002	1.7234667E-003	13	1.6180247E-005
2	1	0	1	2.638443055801581E+003	9.2863363E-001	9.2677087E-001	1.803279994355514E-002	1.7783304E-003	13	1.6712274E-005
2	1	0	1	2.641523355723766E+003	9.3171382E-001	9.2984611E-001	1.855687449114185E-002	1.8347967E-003	13	1.7255037E-005
2	1	0	1	2.644603655645951E+003	9.3479419E-001	9.3293422E-001	1.909226010283714E-002	1.8928965E-003	13	1.7811823E-005
2	1	0	1	2.647683955568136E+003	9.3787444E-001	9.3600488E-001	1.963396764041518E-002	1.9526565E-003	13	1.8377490E-005
2	1	0	1	2.650764255490329E+003	9.4095486E-001	9.3908024E-001	2.018406738510103E-002	2.0140980E-003	13	1.8954459E-005
2	1	0	1	2.653844655412504E+003	9.4403517E-001	9.4217795E-001	2.074209017960232E-002	2.0772519E-003	13	1.9542740E-005
2	1	0	1	2.656924855334699E+003	9.4711536E-001	9.4527739E-001	2.131690817021258E-002	2.1421495E-003	13	2.0150392E-005
2	1	0	1	2.660005255256874E+003	9.5019579E-001	9.4837397E-001	2.189809336210297E-002	2.2088301E-003	13	2.0767582E-005
2	1	0	1	2.663085555179059E+003	9.5327604E-001	9.5144385E-001	2.248985442708462E-002	2.2773128E-003	13	2.1397833E-005
2	1	0	1	2.666165855101252E+003	9.5635635E-001	9.5456052E-001	2.308234390966880E-002	2.3476190E-003	13	2.2033495E-005
2	1	0	1	2.669246155023429E+003	9.5943660E-001	9.5762181E-001	2.368347986488778E-002	2.4197693E-003	13	2.2679817E-005
2	1	0	1	2.672326454945622E+003	9.6251702E-001	9.6067703E-001	2.429220498475201E-002	2.4937859E-003	13	2.3336963E-005
2	1	0	1	2.675406754867799E+003	9.6559721E-001	9.6376389E-001	2.490921446122807E-002	2.5696915E-003	13	2.4006602E-005
2	1	0	1	2.678487054789985E+003	9.6867758E-001	9.6684879E-001	2.553695715888998E-002	2.6475168E-003	13	2.4690376E-005
2	1	0	1	2.681567354712170E+003	9.7175789E-001	9.6990478E-001	2.618043937840497E-002	2.7273004E-003	13	2.5392534E-005
2	1	0	1	2.684647654634355E+003	9.7483826E-001	9.7300553E-001	2.682168705758359E-002	2.8090640E-003	13	2.6097650E-005
2	1	0	1	2.687728054556545E+003	9.7791857E-001	9.7608823E-001	2.747458124087238E-002	2.8928269E-003	13	2.6817615E-005
2	1	0	1	2.690808254478725E+003	9.8099893E-001	9.7915614E-001	2.815624041591069E-002	2.9786399E-003	13	2.7569356E-005
2	1	0	1	2.693888654400907E+003	9.8407924E-001	9.8222715E-001	2.881869801770554E-002	3.0665318E-003	13	2.8306507E-005
2	1	0	1	2.696968954323092E+003	9.8715937E-001	9.8529810E-001	2.948759436695425E-002	3.1564739E-003	13	2.9054070E-005
2	1	0	1	2.700049254245278E+003	9.9023974E-001	9.8845601E-001	3.016261377585733E-002	3.2484862E-003	13	2.9814417E-005
2	1	0	1	2.703129554167463E+003	9.9332005E-001	9.9149513E-001	3.084057852467348E-002	3.3425831E-003	13	3.0578285E-005
2	1	0	1	2.706209854089648E+003	9.9640042E-001	9.9458098E-001	3.153174669315340E-002	3.4387906E-003	13	3.1360876E-005
2	1	0	1	2.709290154011847E+003	9.9948066E-001	9.9766374E-001	3.222900624250494E-002	3.5371354E-003	13	3.2153712E-005
2	1	0	1	2.712370453934025E+003	1.0025611E+000	1.0007920E+000	3.293070843663315E-002	3.6376379E-003	13	3.2956792E-005
2	1	0	1	2.715450753856203E+003	1.0056413E+000	1.0038291E+000	3.363338386138437E-002	3.7403016E-003	13	3.3762171E-005
2	1	0	1	2.718531053778395E+003	1.0087216E+000	1.0068789E+000	3.435538599649035E-002	3.8451613E-003	13	3.4591711E-005
2	1	0	1	2.721611353700573E+003	1.0118020E+000	1.0099678E+000	3.507814258459407E-002	3.9522504E-003	13	3.5427795E-005
2	1	0	1	2.724691653622758E+003	1.0148822E+000	1.0130283E+000	3.582901058578558E-002	4.0616039E-003	13	3.6295802E-005
2	1	0	1	2.727771953544943E+003	1.0179625E+000	1.0160928E+000	3.657356903465814E-002	4.1732704E-003	13	3.7162139E-005
2	1	0	1	2.730852253467128E+003	1.0210427E+000	1.0192297E+000	3.731765492286077E-002	4.2872275E-003	13	3.8035261E-005
2	1	0	1	2.733932553389313E+003	1.0241231E+000	1.0223143E+000	3.806658716503597E-002	4.4034855E-003	13	3.8916016E-005
2	1	0	1	2.737012853311498E+003	1.0272034E+000	1.0254109E+000	3.882320268937992E-002	4.5220638E-003	13	3.9809736E-005
2	1	0	1	2.740093153233684E+003	1.0302837E+000	1.0284458E+000	3.957625187542468E-002	4.6429681E-003	13	4.0702031E-005
2	1	0	1	2.743173453155876E+003	1.0333641E+000	1.0315326E+000	4.033616888802680E-002	4.7662035E-003	13	4.1608077E-005
2	1	0	1	2.746253853078051E+003	1.0364445E+000	1.0346421E+000	4.111590169215185E-002	4.8918184E-003	13	4.2540243E-005
2	1	0	1	2.749334053000246E+003	1.0395247E+000	1.0377363E+000	4.189354111244525E-002	5.0198226E-003	13	4.3474447E-005
2	1	0	1	2.752414452922421E+003	1.0426050E+000	1.0407586E+000	4.271159709449883E-002	5.1502925E-003	13	4.4452463E-005
2	1	0	1	2.755494752844606E+003	1.0456853E+000	1.0438644E+000	4.350738540165028E-002	5.2832477E-003	13	4.5415811E-005
2	1	0	1	2.758575052766799E+003	1.0487657E+000	1.0469080E+000	4.444605775286575E-002	5.4188585E-003	13	4.6530935E-005
2	1	0	1	2.761655452688974E+003	1.0518459E+000	1.0499673E+000	4.536926008845096E-002	5.5573871E-003	13	4.7636240E-005
2	1	0	1	2.764735652611169E+003	1.0549262E+000	1.0531104E+000	4.617143354422792E-002	5.6985384E-003	13	4.8623617E-005
2	1	0	1	2.767816052533344E+003	1.0580065E+000	1.0561433E+000	4.699288881747088E-002	5.8421972E-003	13	4.9631224E-005
2	1	0	1	2.770896352455529E+003	1.0610869E+000	1.0592715E+000	4.782136935915493E-002	5.9883972E-003	13	5.0655810E-005
2	1	0	1	2.773976652377722E+003	1.0641671E+000	1.0623478E+000	4.866715307696157E-002	6.1371694E-003	13	5.1701441E-005
2	1	0	1	2.777056952299899E+003	1.0672475E+000	1.0654665E+000	4.952461090849969E-002	6.2885764E-003	13	5.2766816E-005
2	1	0	1	2.780137252222092E+003	1.0703278E+000	1.0684952E+000	5.035507370964953E-002	6.4425808E-003	13	5.3804153E-005
2	1	0	1	2.783217552144270E+003	1.0734080E+000	1.0716193E+000	5.117775254988854E-002	6.5991292E-003	13	5.4843065E-005
2	1	0	1	2.786297852066455E+003	1.0764884E+000	1.0746381E+000	5.200672105986762E-002	6.7582233E-003	13	5.5888406E-005
2	1	0	1	2.789378151988640E+003	1.0795687E+000	1.0777092E+000	5.285928567640941E-002	6.9199055E-003	13	5.6966939E-005
2	1	0	1	2.792458451910825E+003	1.0826490E+000	1.0808036E+000	5.372588845085535E-002	7.0842393E-003	13	5.8067137E-005
2	1	0	1	2.795538751833010E+003	1.0857292E+000	1.0838723E+000	5.461706394576527E-002	7.2512897E-003	13	5.9197922E-005
2	1	0	1	2.798619051755195E+003	1.0888096E+000	1.0869157E+000	5.559071827399953E-002	7.4212062E-003	13	6.0422426E-005
2	1	0	1	2.801699351677387E+003	1.0918899E+000	1.0900577E+000	5.672051734000383E-002	7.5944285E-003	13	6.1828636E-005
2	1	0	1	2.804779651599572E+003	1.0949701E+000	1.0931681E+000	5.760597052250110E-002	7.7706911E-003	13	6.2973013E-005
2	1	0	1	2.807859951521750E+003	1.0980505E+000	1.0962443E+000	5.849642933069754E-002	7.9496931E-003	13	6.4126376E-005
2	1	0	1	2.810940251443943E+003	1.1011307E+000	1.0992888E+000	5.944410828788871E-002	8.1315227E-003	13	6.5346241E-005
2	1	0	1	2.814020551366120E+003	1.1042110E+000	1.1023641E+000	6.033111923981416E-002	8.3161788E-003	13	6.6506858E-005
2	1	0	1	2.817100851288313E+003	1.1072913E+000	1.1054997E+000	6.120938803912204E-002	8.5035563E-003	13	6.7666966E-005
2	1	0	1	2.820181251210495E+003	1.1103718E+000	1.1085848E+000	6.213374967546292E-002	8.6937109E-003	13	6.8880530E-005
2	1	0	1	2.823261451132676E+003	1.1134520E+000	1.1116607E+000	6.301378599875318E-002	8.8867024E-003	13	7.0049951E-005
2	1	0	1	2.826341851054865E+003	1.1165324E+000	1.1147161E+000	6.394282057712852E-002	9.0824375E-003	13	7.1278089E-005
2	1	0	1	2.829422150977043E+003	1.1196125E+000	1.1177827E+000	6.484144732095376E-002	9.2809768E-003	13	7.2478651E-005
2	1	0	0	2.831732350918683E+003	1.1219231E+000	1.1200688E+000	6.556297353715346E-002	9.4315102E-003	13	7.3435040E-005
2	1	0	1	2.832654550895386E+003	1.1228474E+000	1.1209592E+000	6.612426022320617E-002	9.4921952E-003	13	7.4122596E-005
